x y theta(rad)
-1.839900040067732334e-03 1.499989777803421021e-01 1.664078712463378906e+00
-3.830470144748687744e-03 1.499110460281372070e-01 1.762190580368041992e+00
-5.875050090253353119e-03 1.497330367565155029e-01 1.861690163612365723e+00
-7.936393842101097107e-03 1.494637429714202881e-01 1.961558938026428223e+00
-1.000117138028144836e-02 1.491024643182754517e-01 2.061525344848632812e+00
-1.206446066498756409e-02 1.486507356166839600e-01 2.161515474319458008e+00
-1.412424072623252869e-02 1.481104344129562378e-01 2.261514902114868164e+00
-1.617946289479732513e-02 1.474837660789489746e-01 2.361514329910278320e+00
-1.822942867875099182e-02 1.467732191085815430e-01 2.461518526077270508e+00
-2.027358859777450562e-02 1.459815651178359985e-01 2.561517715454101562e+00
-2.231149002909660339e-02 1.451117843389511108e-01 2.661515951156616211e+00
-2.432955987751483917e-02 1.442259997129440308e-01 2.761347770690917969e+00
-2.635146491229534149e-02 1.431398391723632812e-01 2.861332416534423828e+00
-2.836814895272254944e-02 1.418752223253250122e-01 2.961327075958251953e+00
-3.037781268358230591e-02 1.404569596052169800e-01 3.061328411102294922e+00
-3.238006681203842163e-02 1.389094889163970947e-01 -3.121862173080444336e+00
-3.437484055757522583e-02 1.372555941343307495e-01 -3.021858930587768555e+00
-3.636217862367630005e-02 1.355154663324356079e-01 -2.921854734420776367e+00
-3.834220021963119507e-02 1.337065696716308594e-01 -2.821857452392578125e+00
-4.031511023640632629e-02 1.318435966968536377e-01 -2.721859455108642578e+00
-4.228117316961288452e-02 1.299387961626052856e-01 -2.621852636337280273e+00
-4.424073547124862671e-02 1.280022561550140381e-01 -2.521859645843505859e+00
-4.622995480895042419e-02 1.259881258010864258e-01 -2.497593879699707031e+00
-4.821500182151794434e-02 1.239688843488693237e-01 -2.465086936950683594e+00
-5.019561201333999634e-02 1.219457089900970459e-01 -2.424791336059570312e+00
-5.217155441641807556e-02 1.199193969368934631e-01 -2.377246618270874023e+00
-5.414264276623725891e-02 1.178908273577690125e-01 -2.323048591613769531e+00
-5.610874667763710022e-02 1.158609688282012939e-01 -2.262810707092285156e+00
-5.806982517242431641e-02 1.138308122754096985e-01 -2.197149276733398438e+00
-6.002594530582427979e-02 1.118013635277748108e-01 -2.126670837402343750e+00
-6.197728216648101807e-02 1.097735986113548279e-01 -2.051951169967651367e+00
-6.392411887645721436e-02 1.077484413981437683e-01 -1.973514914512634277e+00
-6.586686521768569946e-02 1.057267636060714722e-01 -1.891860485076904297e+00
-6.785289198160171509e-02 1.037227660417556763e-01 -1.872423052787780762e+00
-6.983439624309539795e-02 1.017172932624816895e-01 -1.846701860427856445e+00
-7.181127369403839111e-02 9.971114248037338257e-02 -1.814793109893798828e+00
-7.378359884023666382e-02 9.770480543375015259e-02 -1.776940464973449707e+00
-7.575154304504394531e-02 9.569882601499557495e-02 -1.733458518981933594e+00
-7.771529257297515869e-02 9.369378536939620972e-02 -1.684653639793395996e+00
-7.967510819435119629e-02 9.169027954339981079e-02 -1.630864024162292480e+00
-8.163132518529891968e-02 8.968892693519592285e-02 -1.572450280189514160e+00
-8.358433097600936890e-02 8.769032359123229980e-02 -1.509758114814758301e+00
-8.553459495306015015e-02 8.569502830505371094e-02 -1.443134784698486328e+00
-8.748263865709304810e-02 8.370356261730194092e-02 -1.372916698455810547e+00
-8.937396109104156494e-02 8.171953260898590088e-02 -1.379411101341247559e+00
-9.135117381811141968e-02 7.972034066915512085e-02 -1.388207912445068359e+00
-9.335192292928695679e-02 7.771912962198257446e-02 -1.399238228797912598e+00
-9.535986930131912231e-02 7.571752369403839111e-02 -1.412491440773010254e+00
-9.737087041139602661e-02 7.371578365564346313e-02 -1.427955865859985352e+00
-9.938387572765350342e-02 7.171402126550674438e-02 -1.445607781410217285e+00
-1.013986170291900635e-01 6.971231102943420410e-02 -1.465433955192565918e+00
-1.034150198101997375e-01 6.771075725555419922e-02 -1.487412095069885254e+00
-1.054330542683601379e-01 6.570946425199508667e-02 -1.511524558067321777e+00
-1.074527055025100708e-01 6.370855867862701416e-02 -1.537754535675048828e+00
-1.094739288091659546e-01 6.170815601944923401e-02 -1.566057801246643066e+00
-1.095675900578498840e-01 5.973593890666961670e-02 -1.550842404365539551e+00
-1.096869632601737976e-01 5.774059146642684937e-02 -1.531009554862976074e+00
-1.098325252532958984e-01 5.574216321110725403e-02 -1.506557822227478027e+00
-1.100044995546340942e-01 5.374396219849586487e-02 -1.477578520774841309e+00
-1.102029308676719666e-01 5.174671858549118042e-02 -1.444191098213195801e+00
-1.104278936982154846e-01 4.975081235170364380e-02 -1.406538486480712891e+00
-1.106794774532318115e-01 4.775657877326011658e-02 -1.364779233932495117e+00
-1.109578087925910950e-01 4.576435685157775879e-02 -1.319073200225830078e+00
-1.112630367279052734e-01 4.377448186278343201e-02 -1.269595384597778320e+00
-1.115953326225280762e-01 4.178729653358459473e-02 -1.216517448425292969e+00
-1.119549125432968140e-01 3.980310633778572083e-02 -1.160031080245971680e+00
-1.120116710662841797e-01 3.782750293612480164e-02 -1.143488883972167969e+00
-1.120863333344459534e-01 3.583727031946182251e-02 -1.121095776557922363e+00
-1.121792271733283997e-01 3.384706377983093262e-02 -1.092947244644165039e+00
-1.122906208038330078e-01 3.185911849141120911e-02 -1.059225082397460938e+00
-1.124208569526672363e-01 2.987395972013473511e-02 -1.020166039466857910e+00
-1.125703305006027222e-01 2.789190225303173065e-02 -9.760151505470275879e-01
-1.127394959330558777e-01 2.591321803629398346e-02 -9.270513653755187988e-01
-1.129288375377655029e-01 2.393815107643604279e-02 -8.735411763191223145e-01
-1.131388992071151733e-01 2.196690998971462250e-02 -8.157818913459777832e-01
-1.133702471852302551e-01 1.999964937567710876e-02 -7.540683150291442871e-01
-1.136234700679779053e-01 1.803646422922611237e-02 -6.886879205703735352e-01
-1.133804246783256531e-01 1.605089195072650909e-02 -6.804435253143310547e-01
-1.130507215857505798e-01 1.405875850468873978e-02 -6.684074997901916504e-01
-1.126356273889541626e-01 1.206818316131830215e-02 -6.526108384132385254e-01
-1.121367365121841431e-01 1.007990166544914246e-02 -6.330954432487487793e-01
-1.115559488534927368e-01 8.094031363725662231e-03 -6.099268794059753418e-01
-1.108953803777694702e-01 6.110639777034521103e-03 -5.831567645072937012e-01
-1.101573407649993896e-01 4.129794891923666000e-03 -5.528561472892761230e-01
-1.093444600701332092e-01 2.151554683223366737e-03 -5.191106796264648438e-01
-1.084595173597335815e-01 1.759691949700936675e-04 -4.820013642311096191e-01
-1.075054854154586792e-01 -1.796925091184675694e-03 -4.416318237781524658e-01
-1.064854189753532410e-01 -3.767109708860516548e-03 -3.980908095836639404e-01
-1.044870615005493164e-01 -5.753267556428909302e-03 -3.781805932521820068e-01
-1.024804785847663879e-01 -7.734379265457391739e-03 -3.512220680713653564e-01
-1.004722192883491516e-01 -9.710469283163547516e-03 -3.174715340137481689e-01
-9.846339374780654907e-02 -1.168163958936929703e-02 -2.772651612758636475e-01
-9.645466506481170654e-02 -1.364804245531558990e-02 -2.309773266315460205e-01
-9.444673359394073486e-02 -1.560989115387201309e-02 -1.790150552988052368e-01
-9.244030714035034180e-02 -1.756747253239154816e-02 -1.218025386333465576e-01
-9.043608605861663818e-02 -1.952114701271057129e-02 -5.977063626050949097e-02
-8.843476325273513794e-02 -2.147135511040687561e-02 6.654663942754268646e-03
-8.643697202205657959e-02 -2.341861091554164886e-02 7.705570012331008911e-02
-8.444328606128692627e-02 -2.536349929869174957e-02 1.510365307331085205e-01
-8.248162269592285156e-02 -2.734438888728618622e-02 1.752258688211441040e-01
-8.049266785383224487e-02 -2.932043932378292084e-02 2.076668590307235718e-01
-7.850062847137451172e-02 -3.129092231392860413e-02 2.480650842189788818e-01
-7.651045173406600952e-02 -3.325640037655830383e-02 2.958566248416900635e-01
-7.452347874641418457e-02 -3.521760180592536926e-02 3.504194617271423340e-01
-7.254039496183395386e-02 -3.717534989118576050e-02 4.111067056655883789e-01
-7.056171447038650513e-02 -3.913054615259170532e-02 4.772781133651733398e-01
-6.858784705400466919e-02 -4.108413681387901306e-02 5.483059287071228027e-01
-6.661906838417053223e-02 -4.303710162639617920e-02 6.235967874526977539e-01
-6.465552747249603271e-02 -4.499042034149169922e-02 7.025938034057617188e-01
-6.269726157188415527e-02 -4.694505408406257629e-02 7.848080992698669434e-01
-6.070441752672195435e-02 -4.892344027757644653e-02 7.876635193824768066e-01
-5.870704352855682373e-02 -5.091811344027519226e-02 7.914761304855346680e-01
-5.670965462923049927e-02 -5.291506275534629822e-02 7.962406277656555176e-01
-5.471273139119148254e-02 -5.491198599338531494e-02 8.019521236419677734e-01
-5.271633714437484741e-02 -5.690850690007209778e-02 8.086196184158325195e-01
-5.072048306465148926e-02 -5.890457704663276672e-02 8.162351846694946289e-01
-4.872518777847290039e-02 -6.090019270777702332e-02 8.248069286346435547e-01
-4.673045501112937927e-02 -6.289537250995635986e-02 8.343290686607360840e-01
-4.473630338907241821e-02 -6.489012390375137329e-02 8.448040485382080078e-01
-4.274274408817291260e-02 -6.688447296619415283e-02 8.562324047088623047e-01
-4.074979200959205627e-02 -6.887843459844589233e-02 8.686044216156005859e-01
-3.882024809718132019e-02 -6.866887211799621582e-02 8.842812180519104004e-01
-3.684687614440917969e-02 -6.839650869369506836e-02 9.055616259574890137e-01
-3.486604616045951843e-02 -6.806121021509170532e-02 9.323874711990356445e-01
-3.288637474179267883e-02 -6.766393035650253296e-02 9.645826816558837891e-01
-3.090985678136348724e-02 -6.720578670501708984e-02 1.001948952674865723e+00
-2.893698401749134064e-02 -6.668806821107864380e-02 1.044264674186706543e+00
-2.696789428591728210e-02 -6.611203402280807495e-02 1.091297745704650879e+00
-2.500261552631855011e-02 -6.547901034355163574e-02 1.142806529998779297e+00
-2.304109930992126465e-02 -6.479066610336303711e-02 1.198528051376342773e+00
-2.108324132859706879e-02 -6.404877454042434692e-02 1.258187890052795410e+00
-1.912887394428253174e-02 -6.325514614582061768e-02 1.321525335311889648e+00
-1.804346218705177307e-02 -6.308439373970031738e-02 1.328831791877746582e+00
-1.660567894577980042e-02 -6.282509118318557739e-02 1.339776873588562012e+00
-1.493339985609054565e-02 -6.247565895318984985e-02 1.354398012161254883e+00
-1.312177255749702454e-02 -6.203633546829223633e-02 1.372676134109497070e+00
-1.123224105685949326e-02 -6.150811538100242615e-02 1.394599914550781250e+00
-9.301394224166870117e-03 -6.089317426085472107e-02 1.420116901397705078e+00
-7.349627558141946793e-03 -6.019418314099311829e-02 1.449157357215881348e+00
-5.387950688600540161e-03 -5.941409990191459656e-02 1.481644749641418457e+00
-3.422209760174155235e-03 -5.855610594153404236e-02 1.517495155334472656e+00
-1.455458579584956169e-03 -5.762358754873275757e-02 1.556617856025695801e+00
5.107505130581557751e-04 -5.662006884813308716e-02 1.598916530609130859e+00
4.769629740621894598e-04 -5.670131370425224304e-02 1.598941564559936523e+00
4.423062782734632492e-04 -5.679053068161010742e-02 1.598794937133789062e+00
4.062420921400189400e-04 -5.689777806401252747e-02 1.598251223564147949e+00
3.681964299175888300e-04 -5.702795833349227905e-02 1.597212672233581543e+00
3.281976096332073212e-04 -5.718162283301353455e-02 1.595662593841552734e+00
2.861486282199621201e-04 -5.735909193754196167e-02 1.593596100807189941e+00
2.420907258056104183e-04 -5.756045132875442505e-02 1.591005444526672363e+00
1.960544905159622431e-04 -5.778578296303749084e-02 1.587882518768310547e+00
1.476736506447196007e-04 -5.803495645523071289e-02 1.584222078323364258e+00
9.655270696384832263e-05 -5.830780044198036194e-02 1.580020070075988770e+00
4.269177588867023587e-05 -5.860424786806106567e-02 1.575276732444763184e+00
